Energy	Absorption
7072.0	0.004125817203704018
7072.5	0.0041759269602815235
7073.0	0.004227178067901732
7073.5	0.004279609476496943
7074.0	0.004333261867107256
7074.5	0.004388177887941373
7075.0	0.004444401997002692
7075.5	0.004501981091583214
7076.0	0.0045609638787698385
7076.5	0.004621401819685065
7077.0	0.004683348578679897
7077.5	0.0047468606528277306
7078.0	0.0048119973719242684
7078.5	0.004878821055860809
7079.0	0.004947397171998254
7079.5	0.005017794728600103
7080.0	0.005090086117459756
7080.5	0.005164347979453513
7081.0	0.005240660732421474
7081.5	0.00531910943672034
7082.0	0.00539978379522421
7082.5	0.005482778625444886
7083.0	0.005568194095591666
7083.5	0.005656136196692152
7084.0	0.005746717214712343
7084.5	0.0058400560453037405
7085.0	0.005936278823297444
7085.5	0.006035519394823754
7086.0	0.00613792010418037
7086.5	0.0062436321872655935
7087.0	0.006352816558445524
7087.5	0.006465644833481963
7088.0	0.006582299801652709
7088.5	0.006702976842112264
7089.0	0.0068278846320731276
7089.5	0.006957246405793001
7090.0	0.0070913012922494845
7090.5	0.007230305888874379
7091.0	0.007374535363168283
7091.5	0.007524285813302599
7092.0	0.007679875920540528
7092.5	0.00784164915246567
7093.0	0.008009976438331226
7093.5	0.008185258214914497
7094.0	0.008367928675600883
7094.5	0.008558459153912885
7095.0	0.008757360326739204
7095.5	0.008965188509272545
7096.0	0.009182551163081502
7096.5	0.009410110830446385
7097.0	0.009648592216166088
7097.5	0.009898790843097617
7098.0	0.010161582494564272
7098.5	0.010437930296161756
7099.0	0.010728899666236672
7099.5	0.01103567011889662
7100.0	0.011359551001356504
7100.5	0.011702003526223326
7101.0	0.012064658082577093
7101.5	0.012449345710663607
7102.0	0.01285812800285227
7102.5	0.01329333408640049
7103.0	0.013757610196093971
7103.5	0.01425397632869392
7104.0	0.014785899421597245
7104.5	0.015357380695109151
7105.0	0.01597307761687675
7105.5	0.01663845183294446
7106.0	0.017359972966389782
7106.5	0.018145402676423745
7107.0	0.01900418809204976
7107.1	0.01918573175873864
7107.2	0.019370776198119232
7107.3	0.01955943314535053
7107.4	0.019751822204264437
7107.5	0.01994806769989715
7107.6	0.020148300252223174
7107.7	0.020352659136757507
7107.8	0.02056129149768845
7107.9	0.0207743523478774
7108.0	0.020992008503195356
7108.1	0.021214436221921328
7108.2	0.02144182199160931
7108.3	0.021674368037159702
7108.4	0.021912289960217303
7108.5	0.022155819099773117
7108.6	0.022405206466501144
7108.7	0.022660721955890986
7108.8	0.022922660643186536
7108.9	0.023191341209650804
7109.0	0.02346711617184169
7109.1	0.023750370307877185
7109.2	0.024041530099842702
7109.3	0.024341066881260934
7109.4	0.024649510213836087
7109.5	0.02496744946118816
7109.6	0.02529555503427105
7109.7	0.02563458468631057
7109.8	0.02598540711882431
7109.9	0.026349022440171677
7110.0	0.026726592066511977
7110.1	0.027119472557099105
7110.2	0.027529262826320372
7110.3	0.027957861585010978
7110.4	0.02840754366658303
7110.5	0.028881051303635028
7110.6	0.029381716092385685
7110.7	0.02991360849746371
7110.8	0.03048172748693171
7110.9	0.0310922137733286
7111.0	0.0317525905950685
7111.1	0.032471970662545216
7111.2	0.03326111753378298
7111.3	0.03413213008064192
7111.4	0.03509729208880196
7111.5	0.036166383532141425
7111.6	0.03734168789961301
7111.7	0.03861067432919959
7111.8	0.03993883318099609
7111.9	0.0412686247824746
7112.0	0.04253251860678807
7112.1	0.04367127613487188
7112.2	0.04464740628655834
7112.3	0.04545054680615484
7112.4	0.04609007715207549
7112.5	0.04658748352326794
7112.6	0.04697268182824285
7112.7	0.047282008025947314
7112.8	0.04755499118289889
7112.9	0.047829942295009274
7113.0	0.04814016945579122
7113.1	0.04851191232965191
7113.2	0.048963872392105666
7113.3	0.04950785737410552
7113.4	0.05015015670611337
7113.5	0.05089326633125744
7113.6	0.05173755529030933
7113.7	0.05268259474058142
7113.8	0.05372806049273934
7113.9	0.05487427516238275
7114.0	0.05612251504829929
7114.1	0.057475162784723755
7114.2	0.05893580963408904
7114.3	0.060509322370748665
7114.4	0.06220192747577884
7114.5	0.06402130477418998
7114.6	0.06597670861249282
7114.7	0.06807911185541755
7114.8	0.07034137584925433
7114.9	0.07277847231843669
7115.0	0.07540775404789794
7115.1	0.07824929244915055
7115.2	0.08132625446973045
7115.3	0.08466527871577449
7115.4	0.08829688383615787
7115.5	0.09225569986148514
7115.6	0.09658054295648519
7115.7	0.10131410067308477
7115.8	0.10650186967953085
7115.9	0.11219018072342628
7116.0	0.11842266559747744
7116.1	0.1252351503706103
7116.2	0.1326490063591443
7116.3	0.14066409979563554
7116.4	0.14925407062497728
7116.5	0.15836756788608675
7116.6	0.16793917929893318
7116.7	0.17791014948098455
7116.8	0.18825344167124158
7116.9	0.1989926933638957
7117.0	0.21020569426186816
7117.2	0.234539943724698
7117.4	0.2622439760769786
7117.6	0.2939983685982022
7117.8	0.3301373903931427
7118.0	0.37074573985976145
7118.2	0.4155357933878135
7118.4	0.46385358555045486
7118.6	0.5150931262211361
7118.8	0.5691444664297056
7119.0	0.6262805547109527
7119.2	0.6863187906353826
7119.4	0.747563624640466
7119.6	0.8063326829265515
7119.8	0.8579027865569452
7120.0	0.898985916025067
7120.2	0.9297569919354014
7120.4	0.9532124837163746
7120.6	0.9726595160130151
7120.8	0.9898812088515184
7121.0	1.0049663208651995
7121.2	1.0170648779786444
7121.4	1.0252132824759175
7121.6	1.0289151784536947
7121.8	1.028497509282032
7122.0	1.0252383835433176
7122.2	1.021157532265856
7122.4	1.0184844653045608
7122.6	1.0190540785550635
7122.8	1.0238899290228234
7123.0	1.033072119800674
7123.2	1.0458789361858094
7123.4	1.0611407785988036
7123.6	1.0776831688828679
7123.8	1.0946781652474527
7124.0	1.1117615268116938
7124.2	1.1289156277476993
7124.4	1.1462489770584314
7124.6	1.1638235798884395
7124.8	1.1815952142945292
7125.0	1.1994375880723835
7125.2	1.2171838853508785
7125.4	1.2346410875772469
7125.6	1.2515749443513302
7125.8	1.2676896722488102
7126.0	1.282632125217988
7126.2	1.2960291707773213
7126.4	1.307541905173541
7126.6	1.3169120785533324
7126.8	1.3239826322002977
7127.0	1.328694865812617
7127.2	1.3310723067230565
7127.4	1.331202926697616
7127.6	1.3292244275167033
7127.8	1.3253123592786562
7128.0	1.3196678452696042
7128.2	1.312505228146594
7128.4	1.3040378276391626
7128.6	1.294464406431488
7128.8	1.2839578392730318
7129.0	1.2726574803655681
7129.2	1.2606679830622072
7129.4	1.2480643358182235
7129.6	1.2349018554059754
7129.8	1.2212297210327512
7130.0	1.2071032494709097
7130.2	1.1925934161524105
7130.4	1.1777916550594447
7130.6	1.1628097013509728
7130.8	1.1477758930863353
7131.0	1.1328291910336479
7131.2	1.1181120968639509
7131.4	1.103763728718822
7131.6	1.0899138410187732
7131.8	1.0766773950787623
7132.0	1.0641508608318075
7133.0	1.0139931840347494
7134.0	0.9840052771646481
7135.0	0.9683952459640487
7136.0	0.9613150925358206
7137.0	0.9578703447971153
7138.0	0.9532344373145085
7139.0	0.943936262294188
7140.0	0.92879638431527
7141.0	0.9085621699550815
7142.0	0.8853539118849906
7143.0	0.861978601883581
7144.0	0.840987342478071
7145.0	0.8240046999303572
7146.0	0.8116993540861046
7147.0	0.8041540833870217
7148.0	0.8012222944520219
7149.0	0.802694444514689
7150.0	0.8083106313003428
7151.0	0.8176917421358351
7152.0	0.8302449511848236
7153.0	0.8450968357258581
7154.0	0.8611186345932454
7155.0	0.8770925919277822
7156.0	0.8919989276871269
7157.0	0.9052878576771564
7158.0	0.9169632375477219
7159.0	0.9274197599448409
7160.0	0.9371581085420793
7161.0	0.9465655794326786
7162.0	0.9558528956840296
7163.0	0.9650996095818429
7164.0	0.9743097341494336
7165.0	0.98341929707396
7166.0	0.9922720265063412
7167.0	1.0006117971350168
7168.0	1.0081199276967552
7169.0	1.014489067817684
7170.0	1.019495904553346
7171.0	1.023045541705357
7172.0	1.0251777947599379
7173.0	1.0260427980010995
7174.0	1.0258574120613038
7175.0	1.0248517956306615
7176.0	1.0232210131169635
7177.0	1.0211040252883252
7178.0	1.018600685607226
7179.0	1.0158164342940927
7180.0	1.0129075431980064
7181.0	1.010098898998058
7182.0	1.0076655118214062
7183.0	1.0058852245175502
7184.0	1.004983002452312
7185.0	1.005083800155571
7186.0	1.006185493085573
7187.0	1.0081589563156594
7188.0	1.0107764704444007
7189.0	1.0137596418151757
7190.0	1.0168292899040479
7191.0	1.0197418005897902
7192.0	1.022306122487928
7193.0	1.0243876226005868
7194.0	1.0259052535941542
7195.0	1.0268214818976285
7196.0	1.0271245045012594
7197.0	1.0268040134431995
7198.0	1.0258297143317585
7199.0	1.0241440084793605
7200.0	1.0216760778275091
7201.0	1.0183727301456007
7202.0	1.0142336506867087
7203.0	1.0093360311345936
7204.0	1.0038357499046782
7205.0	0.9979439234980118
7206.0	0.9918883500027565
7207.0	0.985875896836452
7208.0	0.9800691307867127
7209.0	0.9745811246869361
7210.0	0.9694845850771794
7211.0	0.9648238125873672
7212.0	0.9606237509114371
