Energy	Absorption
7072.0	0.004125817203695351
7072.5	0.0041759269602727215
7073.0	0.004227178067892849
7073.5	0.004279609476487906
7074.0	0.004333261867098161
7074.5	0.004388177887932177
7075.0	0.004444401996993341
7075.5	0.004501981091573725
7076.0	0.004560963878760226
7076.5	0.004621401819675353
7077.0	0.004683348578670097
7077.5	0.004746860652817794
7078.0	0.004811997371914115
7078.5	0.004878821055850537
7079.0	0.004947397171987804
7079.5	0.005017794728589581
7080.0	0.005090086117449
7080.5	0.005164347979442698
7081.0	0.005240660732410432
7081.5	0.005319109436709132
7082.0	0.005399783795212891
7082.5	0.005482778625433361
7083.0	0.005568194095579949
7083.5	0.0056561361966802025
7084.0	0.005746717214700205
7084.5	0.005840056045291495
7085.0	0.005936278823284929
7085.5	0.006035519394811062
7086.0	0.006137920104167473
7086.5	0.006243632187252414
7087.0	0.0063528165584321354
7087.5	0.006465644833468391
7088.0	0.006582299801638832
7088.5	0.006702976842098175
7089.0	0.0068278846320587875
7089.5	0.006957246405778395
7090.0	0.0070913012922345165
7090.5	0.007230305888859104
7091.0	0.0073745353631527785
7091.5	0.007524285813286783
7092.0	0.00767987592052435
7092.5	0.007841649152449184
7093.0	0.008009976438314338
7093.5	0.008185258214897241
7094.0	0.008367928675583206
7094.5	0.008558459153894884
7095.0	0.008757360326720762
7095.5	0.008965188509253694
7096.0	0.009182551163062106
7096.5	0.009410110830426593
7097.0	0.009648592216145764
7097.5	0.009898790843076719
7098.0	0.010161582494542857
7098.5	0.01043793029613972
7099.0	0.010728899666214015
7099.5	0.011035670118873346
7100.0	0.011359551001332577
7100.5	0.011702003526198669
7101.0	0.012064658082551655
7101.5	0.012449345710637312
7102.0	0.012858128002825183
7102.5	0.013293334086372462
7103.0	0.013757610196064942
7103.5	0.01425397632866381
7104.0	0.014785899421566091
7104.5	0.015357380695076799
7105.0	0.015973077616843006
7105.5	0.01663845183290937
7106.0	0.01735997296635313
7106.5	0.01814540267638544
7107.0	0.019004188092009624
7107.1	0.019185731758698185
7107.2	0.019370776198078393
7107.3	0.0195594331453092
7107.4	0.019751822204222735
7107.5	0.01994806769985502
7107.6	0.020148300252180618
7107.7	0.020352659136714576
7107.8	0.020561291497645087
7107.9	0.020774352347833543
7108.0	0.02099200850315105
7108.1	0.021214436221876548
7108.2	0.02144182199156406
7108.3	0.021674368037113968
7108.4	0.021912289960171024
7108.5	0.022155819099726307
7108.6	0.02240520646645383
7108.7	0.022660721955843184
7108.8	0.022922660643138106
7108.9	0.023191341209601826
7109.0	0.02346711617179219
7109.1	0.023750370307827028
7109.2	0.02404153009979194
7109.3	0.02434106688120959
7109.4	0.024649510213784056
7109.5	0.024967449461135494
7109.6	0.025295555034217654
7109.7	0.02563458468625645
7109.8	0.025985407118769423
7109.9	0.026349022440116002
7110.0	0.026726592066455515
7110.1	0.027119472557041818
7110.2	0.02752926282626228
7110.3	0.027957861584951903
7110.4	0.028407543666523035
7110.5	0.028881051303574098
7110.6	0.02938171609232366
7110.7	0.029913608497400594
7110.8	0.030481727486867383
7110.9	0.031092213773262933
7111.0	0.03175259059500145
7111.1	0.03247197066247669
7111.2	0.033261117533712706
7111.3	0.034132130080569846
7111.4	0.03509729208872786
7111.5	0.036166383532065007
7111.6	0.03734168789953413
7111.7	0.03861067432911805
7111.8	0.03993883318091178
7111.9	0.04126862478238749
7112.0	0.04253251860669825
7112.1	0.04367127613477965
7112.2	0.04464740628646403
7112.3	0.04545054680605881
7112.4	0.04609007715197811
7112.5	0.04658748352316955
7112.6	0.04697268182814369
7112.7	0.0472820080258474
7112.8	0.047554991182798406
7112.9	0.04782994229490827
7113.0	0.04814016945568951
7113.1	0.04851191232954946
7113.2	0.04896387239200221
7113.3	0.04950785737400095
7113.4	0.050150156706007434
7113.5	0.05089326633114998
7113.6	0.05173755529020008
7113.7	0.05268259474047018
7113.8	0.053728060492625816
7113.9	0.054874275162266825
7114.0	0.05612251504818075
7114.1	0.05747516278460232
7114.2	0.05893580963396458
7114.3	0.06050932237062084
7114.4	0.06220192747564749
7114.5	0.06402130477405477
7114.6	0.06597670861235341
7114.7	0.0680791118552737
7114.8	0.07034137584910576
7114.9	0.07277847231828295
7115.0	0.07540775404773868
7115.1	0.07824929244898526
7115.2	0.08132625446955861
7115.3	0.08466527871559562
7115.4	0.08829688383597135
7115.5	0.09225569986129024
7115.6	0.09658054295628117
7115.7	0.10131410067287072
7115.8	0.10650186967930587
7115.9	0.1121901807231892
7116.0	0.11842266559722725
7116.1	0.12523515037034574
7116.2	0.13264900635886406
7116.3	0.14066409979533837
7116.4	0.14925407062466192
7116.5	0.15836756788575213
7116.6	0.16793917929857835
7116.7	0.1779101494806086
7116.8	0.18825344167084382
7116.9	0.19899269336347528
7117.0	0.210205694261424
7117.2	0.2345399437242024
7117.4	0.26224397607642447
7117.6	0.293998368597581
7117.8	0.33013739039244516
7118.0	0.370745739858978
7118.2	0.4155357933869354
7118.4	0.46385358554947476
7118.6	0.5150931262200477
7118.8	0.5691444664285029
7119.0	0.6262805547096293
7119.2	0.6863187906339323
7119.4	0.7475636246388864
7119.6	0.8063326829248476
7119.8	0.8579027865551324
7120.0	0.8989859160231674
7120.2	0.9297569919334367
7120.4	0.9532124837143605
7120.6	0.9726595160109598
7120.8	0.9898812088494268
7121.0	1.0049663208630761
7121.2	1.0170648779764953
7121.4	1.0252132824737512
7121.6	1.0289151784515203
7121.8	1.0284975092798587
7122.0	1.0252383835411512
7122.2	1.0211575322636979
7122.4	1.0184844653024088
7122.6	1.0190540785529099
7122.8	1.0238899290206598
7123.0	1.0330721197984911
7123.2	1.0458789361835994
7123.4	1.0611407785965614
7123.6	1.0776831688805906
7123.8	1.0946781652451394
7124.0	1.1117615268093446
7124.2	1.1289156277453138
7124.4	1.1462489770560094
7124.6	1.1638235798859802
7124.8	1.1815952142920325
7125.0	1.1994375880698493
7125.2	1.2171838853483066
7125.4	1.2346410875746379
7125.6	1.2515749443486854
7125.8	1.2676896722461317
7126.0	1.2826321252152777
7126.2	1.2960291707745826
7126.4	1.3075419051707782
7126.6	1.3169120785505497
7126.8	1.3239826321975
7127.0	1.3286948658098092
7127.2	1.3310723067202441
7127.4	1.3312029266948031
7127.6	1.3292244275138945
7127.8	1.3253123592758558
7128.0	1.3196678452668156
7128.2	1.3125052281438208
7128.4	1.304037827636407
7128.6	1.2944644064287527
7128.8	1.2839578392703186
7129.0	1.272657480362879
7129.2	1.2606679830595433
7129.4	1.2480643358155863
7129.6	1.234901855403366
7129.8	1.2212297210301706
7130.0	1.2071032494683591
7130.2	1.1925934161498906
7130.4	1.177791655056956
7130.6	1.1628097013485155
7130.8	1.14777589308391
7131.0	1.132829191031254
7131.2	1.1181120968615879
7131.4	1.1037637287164896
7131.6	1.0899138410164702
7131.8	1.0766773950764872
7132.0	1.064150860829559
7133.0	1.0139931840326066
7134.0	0.9840052771625687
7135.0	0.9683952459620023
7136.0	0.9613150925337893
7137.0	0.9578703447950913
7138.0	0.9532344373124942
7139.0	0.9439362622921934
7140.0	0.9287963843133074
7141.0	0.9085621699531615
7142.0	0.8853539118831197
7143.0	0.8619786018817596
7144.0	0.8409873424762939
7145.0	0.824004699928616
7146.0	0.8116993540843894
7147.0	0.8041540833853225
7148.0	0.8012222944503288
7149.0	0.8026944445129928
7150.0	0.8083106312986347
7151.0	0.8176917421341072
7152.0	0.8302449511830692
7153.0	0.8450968357240723
7154.0	0.8611186345914258
7155.0	0.8770925919259288
7156.0	0.891998927685242
7157.0	0.9052878576752434
7158.0	0.9169632375457842
7159.0	0.9274197599428811
7160.0	0.937158108540099
7161.0	0.9465655794306783
7162.0	0.9558528956820098
7163.0	0.9650996095798037
7164.0	0.9743097341473748
7165.0	0.9834192970718819
7166.0	0.9922720265042443
7167.0	1.0006117971329023
7168.0	1.0081199276946249
7169.0	1.0144890678155403
7170.0	1.0194959045511918
7171.0	1.0230455417031952
7172.0	1.0251777947577716
7173.0	1.0260427979989317
7174.0	1.025857412059136
7175.0	1.024851795628496
7176.0	1.0232210131148014
7177.0	1.0211040252861676
7178.0	1.0186006856050736
7179.0	1.0158164342919462
7180.0	1.012907543195866
7181.0	1.0100988989959234
7182.0	1.007665511819277
7183.0	1.0058852245154246
7184.0	1.0049830024501885
7185.0	1.0050838001534472
7186.0	1.0061854930834468
7187.0	1.0081589563135291
7188.0	1.0107764704422648
7189.0	1.0137596418130337
7190.0	1.0168292899018991
7191.0	1.0197418005876355
7192.0	1.0223061224857677
7193.0	1.024387622598422
7194.0	1.0259052535919864
7195.0	1.0268214818954586
7196.0	1.0271245044990889
7197.0	1.0268040134410295
7198.0	1.025829714329591
7199.0	1.0241440084771964
7200.0	1.0216760778253502
7201.0	1.0183727301434489
7202.0	1.0142336506845655
7203.0	1.0093360311324608
7204.0	1.003835749902557
7205.0	0.997943923495903
7206.0	0.9918883500006606
7207.0	0.9858758968343688
7208.0	0.9800691307846415
7209.0	0.9745811246848769
7210.0	0.9694845850751307
7211.0	0.9648238125853285
7212.0	0.9606237509094071
