Energy	Absorption
5949.0	0.014201732494076575
5949.5	0.014371368679069867
5950.0	0.014544849520523455
5950.5	0.014722306651907265
5951.0	0.014903877163857698
5951.5	0.01508970509249574
5952.0	0.01527994092332094
5952.5	0.015474742418054792
5953.0	0.01567427494537811
5953.5	0.01587871197703708
5954.0	0.016088235418580586
5954.5	0.016303036601572344
5955.0	0.016523315952853494
5955.5	0.016749284152123407
5956.0	0.016981164116363814
5956.5	0.01721919083447016
5957.0	0.017463605744716428
5957.5	0.017714673436991932
5958.0	0.017972665115933206
5958.5	0.018237870176731685
5959.0	0.018510592897760064
5959.5	0.018791157401632747
5960.0	0.01907990434783221
5960.5	0.019377194240082635
5961.0	0.019683410733723518
5961.5	0.019998960635709665
5962.0	0.0203242739046112
5962.5	0.020659808611673974
5963.0	0.0210060509408196
5963.5	0.021363521803392637
5964.0	0.02173277353078702
5964.5	0.022114393181819642
5965.0	0.022509012464851225
5965.5	0.022917302776725875
5966.0	0.02333998512489196
5966.5	0.02377783012740207
5967.0	0.024231666281347104
5967.5	0.024702381616543045
5968.0	0.025190933617651814
5968.5	0.025698352531554898
5969.0	0.026225749635787384
5969.5	0.026774325506971994
5970.0	0.027345378289253132
5970.5	0.027940315270104547
5971.0	0.028560664456136982
5971.5	0.029208089456279444
5972.0	0.02988439940390006
5972.5	0.030591570454734592
5973.0	0.03133176563112811
5973.5	0.03210735631996351
5974.0	0.032920943770590044
5974.5	0.03377540043699348
5975.0	0.034673889822037826
5975.5	0.03561992435650363
5976.0	0.03661739351176368
5976.5	0.03767063490831578
5977.0	0.03878449715588147
5977.5	0.03996440930825194
5978.0	0.041216486699243764
5978.5	0.04254763677865465
5979.0	0.04396569636826845
5979.5	0.04547960033790968
5980.0	0.04709958170154724
5980.5	0.04883743124612331
5981.0	0.05070681503942055
5981.5	0.05272367296858284
5982.0	0.05490673799777301
5982.5	0.0572782042576434
5983.0	0.059864601845657346
5983.5	0.06269796763634937
5984.0	0.06581741959116653
5984.1	0.06647970462096713
5984.2	0.06715576651556653
5984.3	0.06784606665358418
5984.4	0.06855108460419448
5984.5	0.06927132474187392
5984.6	0.07000731459271428
5984.7	0.07075960979548311
5984.8	0.07152878914056328
5984.9	0.07231546449207378
5985.0	0.07312027748049621
5985.1	0.07394389950267467
5985.2	0.07478704164393665
5985.3	0.07565044806334585
5985.4	0.07653490426213616
5985.5	0.07744123708371162
5985.6	0.07837031305995973
5985.7	0.07932305164074581
5985.8	0.08030041527179223
5985.9	0.08130342262417281
5986.0	0.08233314363325243
5986.1	0.08339070445974746
5986.2	0.08447729410447295
5986.3	0.08559415779359544
5986.4	0.08674260690075383
5986.5	0.0879240172933725
5986.6	0.08913982602528774
5986.7	0.09039153795149495
5986.8	0.0916807207670883
5986.9	0.0930090000462002
5987.0	0.09437806089568819
5987.1	0.09578963141826678
5987.2	0.09724548105882069
5987.3	0.0987474057212236
5987.4	0.10029720461672277
5987.5	0.10189667199550509
5987.6	0.103547562419274
5987.7	0.10525157257069467
5987.8	0.10701029991122378
5987.9	0.10882522118318103
5988.0	0.11069765437495252
5988.1	0.11262873226200186
5988.2	0.1146193809089416
5988.3	0.11667031305478603
5988.4	0.11878202976663807
5988.5	0.12095485351342529
5988.6	0.12318897943019107
5988.7	0.1254845546950613
5988.8	0.12784178436520025
5988.9	0.13026105705700777
5989.0	0.1327430822021246
5989.1	0.13529179392146737
5989.2	0.13791183411390656
5989.3	0.14060585363939565
5989.4	0.14337728885912204
5989.5	0.14623039305555627
5989.6	0.14917022485664455
5989.7	0.15220260193257795
5989.8	0.15533402161882576
5989.9	0.15857158319285544
5990.0	0.1619228969213581
5990.1	0.1653960162590895
5990.2	0.16899939981407344
5990.3	0.172741908040228
5990.4	0.17663281812054699
5990.5	0.18068185373346235
5990.6	0.18489931734778894
5990.7	0.18929607368585644
5990.8	0.19388369855532192
5990.9	0.19867449538603812
5991.0	0.20368141254571298
5991.1	0.20891810948738185
5991.2	0.2143987417701226
5991.3	0.2201378783747152
5991.4	0.226150187503148
5991.5	0.2324502215993328
5991.6	0.23905200392740286
5991.7	0.24596863168687874
5991.8	0.2532118295172304
5991.9	0.2607913872443621
5992.0	0.2687145314796255
5992.1	0.27698536336630486
5992.2	0.285604048273081
5992.3	0.2945661873930442
5992.4	0.3038621066583667
5992.5	0.3134761952655795
5992.6	0.32338637649579366
5992.7	0.3335637769773386
5992.8	0.34397254478021333
5992.9	0.35457004785850366
5993.0	0.3653073866932921
5993.1	0.37613025420979856
5993.2	0.3869803083374313
5993.3	0.397796726475386
5993.4	0.4085181403062118
5993.5	0.41908481866239794
5993.6	0.4294406850242797
5993.7	0.4395353846285484
5993.8	0.4493260869868729
5993.9	0.4587787096141368
5994.0	0.4678689929248644
5994.2	0.48491582494438035
5994.4	0.5004703534513432
5994.6	0.5146730756769745
5994.8	0.5277647022730702
5995.0	0.5400454104690475
5995.2	0.551838380277826
5995.4	0.5634617810412953
5995.6	0.5752095721264746
5995.8	0.5873395633067563
5996.0	0.6000664031298395
5996.2	0.6135578746592806
5996.4	0.6279340024836156
5996.6	0.6432686237188292
5996.8	0.6595936379834506
5997.0	0.6769060851780935
5997.2	0.6951773399841084
5997.4	0.7143637450697597
5997.6	0.734416715116624
5997.8	0.7552906083687957
5998.0	0.7769464474282066
5998.2	0.7993504143996298
5998.4	0.8224680299131151
5998.6	0.8462558020056079
5998.8	0.8706529576869081
5999.0	0.8955759361625995
5999.2	0.920916751684109
5999.4	0.9465449448991409
5999.6	0.9723112374995223
5999.8	0.9980509388160285
6000.0	1.0235847065143142
6000.2	1.048716247970251
6000.4	1.073227673409995
6000.6	1.0968748159763217
6000.8	1.1193854126731353
6001.0	1.140463354340566
6001.2	1.1598006418105942
6001.4	1.1770974451280318
6001.6	1.1920879672122031
6001.8	1.2045678950579597
6002.0	1.2144182955100589
6002.2	1.2216206968868533
6002.4	1.2262600160059418
6002.6	1.2285147848951337
6002.8	1.2286367608341038
6003.0	1.2269243019967804
6003.2	1.2236944532180238
6003.4	1.219258339133922
6003.6	1.213902460983989
6003.8	1.2078772365615844
6004.0	1.2013923698908515
6004.2	1.1946171819640776
6004.4	1.1876844969056946
6004.6	1.1806961156756124
6004.8	1.173728537825577
6005.0	1.166838220223219
6005.2	1.1600659758589635
6005.4	1.15344034736712
6005.6	1.1469803025353775
6005.8	1.1406971195077678
6006.0	1.1345960404714728
6006.2	1.128677495385063
6006.4	1.1229382264855257
6006.6	1.11737229703722
6006.8	1.1119719677858835
6007.0	1.106728441117697
6007.2	1.1016324729234026
6007.4	1.0966748852412151
6007.6	1.0918467646992387
6007.8	1.087139561736675
6008.0	1.0825451071406917
6008.2	1.0780553639934014
6008.4	1.07366226230318
6008.6	1.0693574178779102
6008.8	1.0651320000300364
6009.0	1.0609765165972795
6010.0	1.0408831965922962
6011.0	1.0210450900724164
6012.0	1.0009358285266023
6013.0	0.981167524126895
6014.0	0.9630224456243429
6015.0	0.9477769911818255
6016.0	0.9363125262574884
6017.0	0.9290448207886398
6018.0	0.9260687137137278
6019.0	0.9273366450001495
6020.0	0.9327034374830163
6021.0	0.9418243966840354
6022.0	0.9540358980870912
6023.0	0.968358049574008
6024.0	0.9836626563936534
6025.0	0.998930799419179
6026.0	1.013456056719874
6027.0	1.0268876813237275
6028.0	1.0391163314589842
6029.0	1.050093471417824
6030.0	1.0596864920551008
6031.0	1.0676296955113471
6032.0	1.0735811655021077
6033.0	1.0772515399096902
6034.0	1.0785417298205497
6035.0	1.0776243801374585
6036.0	1.074934145901073
6037.0	1.0710775663588916
6038.0	1.0667056483966828
6039.0	1.0623963224801627
6040.0	1.0585767193750117
6041.0	1.055492246203561
6042.0	1.0532129200652676
6043.0	1.051661116901357
6044.0	1.0506490936484982
6045.0	1.0499218187271369
6046.0	1.049204399779152
6047.0	1.0482507682074897
6048.0	1.0468850048094973
6049.0	1.0450253182356428
6050.0	1.0426851198859413
6051.0	1.0399514267602377
6052.0	1.0369475377469484
6053.0	1.0337917741371976
6054.0	1.0305658445961765
6055.0	1.027302938618125
6056.0	1.0239979463108058
6057.0	1.0206332724465799
6058.0	1.0172086855092946
6059.0	1.0137631794338857
6060.0	1.0103818364066335
6061.0	1.0071870788619464
6062.0	1.0043198339896156
6063.0	1.0019179696588376
6064.0	1.000099129149145
6065.0	0.9989513216724681
6066.0	0.9985327735413225
6067.0	0.9988782783261517
6068.0	1.0000076306580494
6069.0	1.0019311164689624
6070.0	1.0046486696114185
6071.0	1.0081432405744255
6072.0	1.012371436616137
6073.0	1.017255997488876
6074.0	1.0226827691922749
6075.0	1.0285037302201354
6076.0	1.0345450450151832
6077.0	1.0406190697352966
6078.0	1.0465386566443957
6079.0	1.052132235736134
6080.0	1.0572580364404478
6081.0	1.0618154153781918
6082.0	1.065751553792714
6083.0	1.0690620032665001
6084.0	1.0717850135754232
6085.0	1.0739906845032807
6086.0	1.0757671079463442
6087.0	1.0772063446492233
6088.0	1.0783930964502324
6089.0	1.0793976781124544
