Energy	Absorption
7072.0	0.0042840846832524326
7072.5	0.0043367700493590735
7073.0	0.004390676769632489
7073.5	0.004445847336513869
7074.0	0.004502325861204067
7074.5	0.0045601596924232666
7075.0	0.004619396988271483
7075.5	0.004680089549057977
7076.0	0.0047422911985415895
7076.5	0.00480605778393074
7077.0	0.004871449199333011
7077.5	0.004938528171685398
7078.0	0.005007359046684559
7078.5	0.005078012240375896
7079.0	0.005150559382874557
7079.5	0.0052250773652646
7080.0	0.005301647125529243
7080.5	0.005380353648550867
7081.0	0.005461286775490844
7081.5	0.005544542013169376
7082.0	0.005630219319995734
7082.5	0.0057184255341077685
7083.0	0.005809273563992071
7083.5	0.005902882388483972
7084.0	0.0059993790802171255
7084.5	0.006098898400933593
7085.0	0.00620158361086367
7085.5	0.006307586468725892
7086.0	0.0064170700645564465
7086.5	0.006530206796259588
7087.0	0.006647181202437059
7087.5	0.006768190367077995
7088.0	0.006893445943008514
7088.5	0.007023173342511881
7089.0	0.0071576149748478375
7089.5	0.0072970302462525985
7090.0	0.007441699202148104
7090.5	0.007591922122452095
7091.0	0.0077480231637873645
7091.5	0.007910352382931333
7092.0	0.008079287760265634
7092.5	0.00825523843729544
7093.0	0.008438648763548622
7093.5	0.00863000072471525
7094.0	0.008829818798926583
7094.5	0.009038675622413894
7095.0	0.009257195631717717
7095.5	0.00948606315748617
7096.0	0.009726028899513607
7096.5	0.009977918020538948
7097.0	0.010242639858803658
7097.5	0.0105211992593694
7098.0	0.01081471033357518
7098.5	0.011124410218494503
7099.0	0.011451677692671504
7099.5	0.011798055029376421
7100.0	0.012165272682690475
7100.5	0.012555280043939493
7101.0	0.012970280649716615
7101.5	0.013412778721222634
7102.0	0.013885632178645012
7102.5	0.014392120224373865
7103.0	0.014936026304434765
7103.5	0.015521747374766082
7104.0	0.01615442704420138
7104.5	0.016840134042722422
7105.0	0.017586098965060075
7105.5	0.01840103073820869
7106.0	0.019295562185023755
7106.5	0.02028288700614979
7107.0	0.02137970877787361
7107.1	0.02161401169390513
7107.2	0.02185374231109132
7107.3	0.02209911632915745
7107.4	0.022350363611975864
7107.5	0.02260772818756597
7107.6	0.02287147027154381
7107.7	0.0231418690999515
7107.8	0.023419222524567275
7107.9	0.02370385105980469
7108.0	0.02399609950147226
7108.1	0.02429633975960286
7108.2	0.02460497409597311
7108.3	0.02492243836162263
7108.4	0.02524920766251292
7108.5	0.025585799192356744
7108.6	0.025932779921726556
7108.7	0.02629077266840323
7108.8	0.026660465000554204
7108.9	0.027042617735221736
7109.0	0.027438077483710303
7109.1	0.02784779000635381
7109.2	0.028272818018871933
7109.3	0.02871436061748605
7109.4	0.029173778774383995
7109.5	0.029652626094153655
7109.6	0.030152686449945173
7109.7	0.030676022141570967
7109.8	0.031225032170853657
7109.9	0.0318025267045706
7110.0	0.03241182177189427
7110.1	0.03305685824322762
7110.2	0.03374235561237212
7110.3	0.03447400462892791
7110.4	0.0352587202294913
7110.5	0.03610495760047928
7110.6	0.03702311808211529
7110.7	0.03802604815109586
7110.8	0.039129643622635275
7110.9	0.040353523863865814
7111.0	0.041721676869564
7111.1	0.04326282510183476
7111.2	0.04500989575101121
7111.3	0.04699746957042369
7111.4	0.04925506464255214
7111.5	0.05179321099901334
7111.6	0.05457959010310797
7111.7	0.05750774422550811
7111.8	0.06037478612367876
7111.9	0.06290096175242188
7112.0	0.06481689331598808
7112.1	0.0659798992906598
7112.2	0.0664370329729814
7112.3	0.06638740584857068
7112.4	0.06608208349447375
7112.5	0.0657406182839704
7112.6	0.06551692593284897
7112.7	0.06550243398695361
7112.8	0.06574332161260991
7112.9	0.06625795363821026
7113.0	0.06704990347571377
7113.1	0.06811654873446414
7113.2	0.06945432409630059
7113.3	0.07106169578644111
7113.4	0.07294069939516366
7113.5	0.07509763594446182
7113.6	0.07754333088959116
7113.7	0.0802930653217834
7113.8	0.08336630077910355
7113.9	0.08678612077436565
7114.0	0.09057831214902326
7114.1	0.09476987986117742
7114.2	0.0993868373786347
7114.3	0.10445109461345244
7114.4	0.10997651624215608
7114.5	0.11596475339960328
7114.6	0.12240196973756276
7114.7	0.12925868359564702
7114.8	0.13649510990820474
7114.9	0.1440737905766022
7115.0	0.15197857847318724
7115.1	0.16023514307933773
7115.2	0.1689254300561637
7115.3	0.1781896806471887
7115.4	0.18821448523202658
7115.5	0.19921158971547562
7115.6	0.21139421307362877
7115.7	0.22495586588366503
7115.8	0.24005274226560044
7115.9	0.2567885480573334
7116.0	0.27520008171293453
7116.1	0.295242944701709
7116.2	0.3167783526638312
7116.3	0.33956375065119054
7116.4	0.36325180949639946
7116.5	0.3874032949521252
7116.6	0.4115180871731587
7116.7	0.43508394989820276
7116.8	0.4576343646857816
7116.9	0.47880057808434967
7117.0	0.49834277084962897
7117.2	0.5322443330937525
7117.4	0.5597262587298717
7117.6	0.5822822582382926
7117.8	0.6020422955854059
7118.0	0.6215730356260598
7118.2	0.6436412623786116
7118.4	0.6706064799298609
7118.6	0.7035104005928273
7118.8	0.7414827791719406
7119.0	0.7821736217934294
7119.2	0.8232086127195654
7119.4	0.863489828207983
7119.6	0.9031369350668716
7119.8	0.9423778141879843
7120.0	0.9806237631503776
7120.2	1.0164508400152805
7120.4	1.0483782843797016
7120.6	1.0757842092495782
7120.8	1.099205759550543
7121.0	1.1198411411861693
7121.2	1.1387754896974742
7121.4	1.1565049549215898
7121.6	1.1728933587017503
7121.8	1.187377655957693
7122.0	1.1991884097519465
7122.2	1.2074491426642329
7122.4	1.2112012656902977
7122.6	1.2095493214527988
7122.8	1.2020101506609095
7123.0	1.188849189430597
7123.2	1.17110058237345
7123.4	1.1502412858072486
7123.6	1.1277686119525516
7123.8	1.1049155295767252
7124.0	1.0825538216970214
7124.2	1.0612213616809216
7124.4	1.0412101333028883
7124.6	1.0226789368859972
7124.8	1.0057583658661717
7125.0	0.9906142217020365
7125.2	0.977454312665506
7125.4	0.9664941361369006
7125.6	0.9579137386598909
7125.8	0.9518325442287168
7126.0	0.9483065214587739
7126.2	0.9473384627104835
7126.4	0.9488863611705546
7126.6	0.9528625205341699
7126.8	0.9591242876059054
7127.0	0.9674622758231743
7127.2	0.9775939306865586
7127.4	0.9891666458721652
7127.6	1.0017728581654948
7127.8	1.0149738432285091
7128.0	1.0283289746805637
7128.2	1.041425306931276
7128.4	1.053902665955321
7128.6	1.0654711318968084
7128.8	1.0759192947435705
7129.0	1.0851138496372457
7129.2	1.0929917054199147
7129.4	1.0995479653435927
7129.6	1.1048216010471996
7129.8	1.1088823406032786
7130.0	1.111818851572446
7130.2	1.1137299592322125
7130.4	1.1147188190421904
7130.6	1.1148888697449333
7130.8	1.1143422146062723
7131.0	1.1131785692215332
7131.2	1.11149509963957
7131.4	1.1093862604868
7131.6	1.1069434307462767
7131.8	1.1042542257848347
7132.0	1.1014018498492233
7133.0	1.087167448616469
7134.0	1.0772346583778538
7135.0	1.0729671222746502
7136.0	1.0710890373120374
7137.0	1.0664339701451815
7138.0	1.0549223631369051
7139.0	1.0350878628452305
7140.0	1.008118396049862
7141.0	0.9768942218216307
7142.0	0.9447686008052978
7143.0	0.9148000984487255
7144.0	0.8893370898660202
7145.0	0.8697463747798011
7146.0	0.8563821378046342
7147.0	0.8487665615565865
7148.0	0.8458442552034738
7149.0	0.8462705555610881
7150.0	0.8487202650301852
7151.0	0.8521578630534613
7152.0	0.8560078401012381
7153.0	0.8601849280081945
7154.0	0.8649787633472792
7155.0	0.8708484263593106
7156.0	0.8782110309408075
7157.0	0.8872843002666291
7158.0	0.8980036053571748
7159.0	0.9100254049426719
7160.0	0.9228280132522823
7161.0	0.9358866688718059
7162.0	0.9488490487602906
7163.0	0.9616218314230849
7164.0	0.9743320085558593
7165.0	0.9872022810194407
7166.0	1.0004126548885084
7167.0	1.0140014138291247
7168.0	1.027816515839813
7169.0	1.0415090372749158
7170.0	1.0545726705804077
7171.0	1.0664396358040067
7172.0	1.0766213103410205
7173.0	1.0848384176803516
7174.0	1.0910713708300614
7175.0	1.0955003782097867
7176.0	1.0983722197303623
7177.0	1.0998728908772253
7178.0	1.1000755595872056
7179.0	1.0989818850889592
7180.0	1.0966182936340072
7181.0	1.0931212871310483
7182.0	1.0887587703045374
7183.0	1.0838759841218948
7184.0	1.07879550691524
7185.0	1.0737230425689237
7186.0	1.0687045233884231
7187.0	1.063650310557323
7188.0	1.05840921192297
7189.0	1.0528520099951555
7190.0	1.046929494480082
7191.0	1.040690673326589
7192.0	1.0342688918620293
7193.0	1.0278519262074712
7194.0	1.0216484344836532
7195.0	1.0158586572610588
7196.0	1.0106510669517585
7197.0	1.0061463016197403
7198.0	1.0024062383531749
7199.0	0.9994274372877755
7200.0	0.9971405345719234
7201.0	0.9954170816262503
7202.0	0.9940852471123821
7203.0	0.9929528842581571
7204.0	0.9918346046130122
7205.0	0.9905773139816887
7206.0	0.9890801231681041
7207.0	0.9873040605333386
7208.0	0.9852705746429452
7209.0	0.9830494745074502
7210.0	0.9807391402454563
7211.0	0.9784443460762404
7212.0	0.9762565923898315
