Energy	Absorption
7072.0	0.004170248249043126
7072.5	0.004220556059444674
7073.0	0.00427202004924252
7073.5	0.004324680291994664
7074.0	0.0043785788458543615
7074.5	0.004433759600908949
7075.0	0.004490268660832774
7075.5	0.0045481543428872
7076.0	0.004607467177920602
7076.5	0.004668260444682477
7077.0	0.004730589864501093
7077.5	0.0047945142119281865
7078.0	0.004860095085747202
7078.5	0.004927397366956807
7079.0	0.004996489447762659
7079.5	0.0050674432315774036
7080.0	0.005140334591004188
7080.5	0.005215243520497846
7081.0	0.005292254594348404
7081.5	0.005371457043011684
7082.0	0.00545294521109281
7082.5	0.005536818938999144
7083.0	0.0056231840972544005
7083.5	0.005712152586498636
7084.0	0.005803843406116472
7084.5	0.005898382730567674
7085.0	0.005995904596362435
7085.5	0.0060965517416978286
7086.0	0.006200475988110741
7086.5	0.006307839232775503
7087.0	0.006418814059148573
7087.5	0.006533584958257937
7088.0	0.006652348863017201
7088.5	0.006775316980159683
7089.0	0.006902715248221929
7089.5	0.00703478639846955
7090.0	0.007171790870864265
7090.5	0.007314009027650914
7091.0	0.007461742832630366
7091.5	0.007615317988415943
7092.0	0.007775086226351022
7092.5	0.007941428130740743
7093.0	0.008114756573728404
7093.5	0.008295518852551895
7094.0	0.008484201956354173
7094.5	0.008681336382712596
7095.0	0.008887500717474128
7095.5	0.009103328504508129
7096.0	0.009329512062235706
7096.5	0.009566814696523556
7097.0	0.009816074517213324
7097.5	0.010078216651015454
7098.0	0.010354265454403063
7098.5	0.01064535596319994
7099.0	0.01095275144861548
7099.5	0.011277863263197218
7100.0	0.011622268396865764
7100.5	0.011987739245843603
7101.0	0.012376274908195638
7101.5	0.012790136295899042
7102.0	0.013231894223112875
7102.5	0.01370448131097701
7103.0	0.014211262211751884
7103.5	0.014756115282546216
7104.0	0.015343535631609026
7104.5	0.015978766406938703
7105.0	0.016667960617126745
7105.5	0.01741839409369458
7106.0	0.01823873570137036
7106.5	0.019139403801928728
7107.0	0.020133041793745764
7107.1	0.020344230971027808
7107.2	0.020559887777547668
7107.3	0.02078015800472589
7107.4	0.021005195077041676
7107.5	0.02123515852542117
7107.6	0.02147021551384918
7107.7	0.021710540839369175
7107.8	0.02195631922200091
7107.9	0.022207742251516914
7108.0	0.02246501067736014
7108.1	0.02272833822517326
7108.2	0.02299794625365762
7108.3	0.023274068334408437
7108.4	0.023556950251914777
7108.5	0.023846851530171333
7108.6	0.02414404543267837
7108.7	0.024448818199135917
7108.8	0.024761474388584778
7108.9	0.025082334589488976
7109.0	0.025411737709653322
7109.1	0.025750044029446906
7109.2	0.026097632911885472
7109.3	0.026454909672384248
7109.4	0.026822304052146185
7109.5	0.0272002717447737
7109.6	0.02758930202932736
7109.7	0.027989913953796512
7109.8	0.028402665494769733
7109.9	0.02882815355743477
7110.0	0.029267020082025526
7110.1	0.029719956623657236
7110.2	0.030187712748691007
7110.3	0.030671098324651407
7110.4	0.031170997259732075
7110.5	0.03168837666246613
7110.6	0.032224296764702426
7110.7	0.03277993153086395
7110.8	0.033356580870841694
7110.9	0.03395569659239415
7111.0	0.03457890453701737
7111.1	0.03522802518920346
7111.2	0.03590509123247544
7111.3	0.03661233457318757
7111.4	0.03735212527605595
7111.5	0.038126794477197495
7111.6	0.038938295476325116
7111.7	0.03978766255288818
7111.8	0.04067442856369627
7111.9	0.04159646083215782
7112.0	0.04255144959472016
7112.1	0.04354272820810322
7112.2	0.044572985798875385
7112.3	0.045647122790700885
7112.4	0.04677222724185794
7112.5	0.04795620242129041
7112.6	0.0492069889999296
7112.7	0.05053240170323883
7112.8	0.0519402834989985
7112.9	0.05343873229914845
7113.0	0.05503631468543071
7113.1	0.056742266658832384
7113.2	0.058566711945063576
7113.3	0.06052089709276431
7113.4	0.06261744489105225
7113.5	0.06487061771004679
7113.6	0.067296597634122
7113.7	0.06991380399714738
7113.8	0.0727432628225271
7113.9	0.0758090289313445
7114.0	0.07913868972423396
7114.1	0.08276392697449894
7114.2	0.0867212099098388
7114.3	0.0910525737843329
7114.4	0.09580658775027966
7114.5	0.10103943111946843
7114.6	0.1068161680839771
7114.7	0.11321222089649467
7114.8	0.12031498044570006
7114.9	0.1282256076581076
7115.0	0.13706096466190956
7115.1	0.1469556070152886
7115.2	0.15806364617273216
7115.3	0.1705603753265289
7115.4	0.18464333803498173
7115.5	0.20053277093981073
7115.6	0.21847164956450513
7115.7	0.23872574937879254
7115.8	0.2615842793425084
7115.9	0.28735941628901734
7116.0	0.31637832074584726
7116.1	0.34895507017797095
7116.2	0.3853267626537038
7116.3	0.42554300542132306
7116.4	0.46931183398681436
7116.5	0.5158299452560585
7116.6	0.563657790162804
7116.7	0.6107271990942752
7116.8	0.6545603056468016
7116.9	0.6927004251545142
7117.0	0.7232261411905696
7117.2	0.7584204954313811
7117.4	0.7628813312469855
7117.6	0.7472737185012023
7117.8	0.7224232655477358
7118.0	0.6955809048706362
7118.2	0.6700311645135063
7118.4	0.646702293107786
7118.6	0.6259232449497903
7118.8	0.6080241192946338
7119.0	0.5930356163042755
7119.2	0.580544955432119
7119.4	0.5700659337402502
7119.6	0.561525441792756
7119.8	0.5555011418364992
7120.0	0.5530681425516738
7120.2	0.555307452972823
7120.4	0.5627645238392351
7120.6	0.5751639162289097
7120.8	0.5914917004268694
7121.0	0.6103799712555116
7121.2	0.6306165379340407
7121.4	0.6515626203148472
7121.6	0.6733407595217719
7121.8	0.6967940268845887
7122.0	0.7232748324718067
7122.2	0.7543146808074394
7122.4	0.7912552269803333
7122.6	0.8349484577327864
7122.8	0.885579909821818
7123.0	0.9425877137989476
7123.2	1.004624100495336
7123.4	1.0695544850547458
7123.6	1.1345672303171728
7123.8	1.1964995784239294
7124.0	1.2523966960344182
7124.2	1.3001357532027487
7124.4	1.3388252086766106
7124.6	1.3687859562423665
7124.8	1.3911606647824721
7125.0	1.4073763346147306
7125.2	1.4186839477240825
7125.4	1.425894592924488
7125.6	1.429324736828282
7125.8	1.4289006440887413
7126.0	1.4243484405608922
7126.2	1.4153968473397087
7126.4	1.401940070232065
7126.6	1.3841314573865824
7126.8	1.362403497907335
7127.0	1.3374218708406753
7127.2	1.30999705435587
7127.4	1.2809820427589602
7127.6	1.251184642648679
7127.8	1.2213128965469806
7128.0	1.1919543973100544
7128.2	1.1635814786082157
7128.4	1.1365671680185239
7128.6	1.1112021324150188
7128.8	1.0877065855402452
7129.0	1.0662373867498105
7129.2	1.0468920865334794
7129.4	1.0297125903833342
7129.6	1.014689051653694
7129.8	1.0017662833303964
7130.0	0.9908502461306636
7130.2	0.9818162158758759
7130.4	0.9745168745337595
7130.6	0.9687901722688135
7130.8	0.9644667315092156
7131.0	0.9613758770631714
7131.2	0.959351513574086
7131.4	0.9582351787440314
7131.6	0.9578792492183874
7131.8	0.9581483908669872
7132.0	0.9589199404370516
7133.0	0.966848932788612
7134.0	0.9749555464153543
7135.0	0.9771390591776475
7136.0	0.9707338543277884
7137.0	0.957276542906038
7138.0	0.9408120353612343
7139.0	0.9248954287675506
7140.0	0.9113887314562246
7141.0	0.9009767814508629
7142.0	0.8938031565849928
7143.0	0.8893812493685902
7144.0	0.8861402526585653
7145.0	0.8815574405654616
7146.0	0.8732277889644683
7147.0	0.8601318265400157
7148.0	0.8431134642583316
7149.0	0.8243305678045879
7150.0	0.8062493784341053
7151.0	0.7908645670377542
7152.0	0.7794031477962614
7153.0	0.772401419411573
7154.0	0.7699350254950792
7155.0	0.7718163454647443
7156.0	0.7776792978268973
7157.0	0.7869891868219118
7158.0	0.7990573578968475
7159.0	0.8130990562901463
7160.0	0.8283209018839561
7161.0	0.8440150048174956
7162.0	0.8596580425885525
7163.0	0.8750104898161554
7164.0	0.8901759271064157
7165.0	0.9055566166510866
7166.0	0.9216839719945671
7167.0	0.9389801776117315
7168.0	0.9575475164887179
7169.0	0.977058148755777
7170.0	0.996764263655299
7171.0	1.0156143310253125
7172.0	1.0324446147414408
7173.0	1.0462064088734193
7174.0	1.0561736568808393
7175.0	1.0620669888164869
7176.0	1.0640527290287172
7177.0	1.0626275606449942
7178.0	1.0584486900165502
7179.0	1.052188207959018
7180.0	1.0444604993645075
7181.0	1.0358151444570454
7182.0	1.0267556197863097
7183.0	1.0177446413686966
7184.0	1.0091853110324118
7185.0	1.001393561075685
7186.0	0.9945825064964993
7187.0	0.9888693147453935
7188.0	0.9842994788520238
7189.0	0.9808726171634565
7190.0	0.9785577394615036
7191.0	0.9772953078885618
7192.0	0.9769969316252674
7193.0	0.9775529236185744
7194.0	0.9788522991954647
7195.0	0.9808062095530533
7196.0	0.9833619102559513
7197.0	0.9864951281775977
7198.0	0.9901797582573508
7199.0	0.9943471792977944
7200.0	0.998853584473641
7201.0	1.0034705163389863
7202.0	1.0079038731433896
7203.0	1.0118389438780082
7204.0	1.0149984958520557
7205.0	1.017197732715203
7206.0	1.0183797881803809
7207.0	1.0186192372307659
7208.0	1.0180943881168203
7209.0	1.0170381254584753
7210.0	1.0156868450826493
7211.0	1.0142405331264188
7212.0	1.012842920084484
